Time,Altitude,Pressure,Velocity,Temperature,Events,Voltages
0.00,0.00000,991.30,0,91.22,-,9.023726
0.05,8.33699,991.00,7.952381,91.22,-,9.023726
0.10,19.45726,990.60,18.52381,91.22,-,9.023726
0.15,25.01706,990.40,23.80952,91.22,-,9.023726
0.20,33.36187,990.10,31.76191,91.22,-,9.023726
0.25,47.27216,989.60,45,91.22,-,9.023726
0.30,55.62072,989.30,52.95238,91.22,-,9.023726
0.35,61.18814,989.10,58.23809,91.22,-,9.023726
0.40,72.32401,988.70,68.85714,91.22,-,9.023726
0.45,86.25025,988.20,82.14286,91.22,-,9.023726
0.50,94.6084,987.90,90.09524,91.22,-,9.023726
0.55,111.3326,987.30,106,91.04,-,9.004278
0.60,125.2748,986.80,119.2857,91.04,-,9.004278
0.65,139.2227,986.30,132.5714,91.04,-,9.004278
0.70,158.7598,985.60,151.1905,91.04,-,9.004278
0.75,181.101,984.80,172.4762,91.04,-,9.004278
0.80,195.0719,984.30,185.7619,91.04,-,9.004278
0.85,206.2517,983.90,196.4286,91.04,-,9.004278
0.90,217.4369,983.50,207.0952,91.04,-,9.004278
0.95,234.22,982.90,223.0952,91.04,-,9.004278
1.00,248.2127,982.40,236.4286,91.04,-,9.004278
1.05,265.0127,981.80,252.4286,91.04,-,9.004278
1.10,279.0181,981.30,257.8095,91.04,-,9.004278
1.15,290.2256,980.90,257.9048,91.04,-,9.004278
1.20,301.4385,980.50,263.2857,91.04,-,9.004278
1.25,315.459,980.00,268.6667,91.04,-,9.004278
1.30,329.4853,979.50,268.8095,91.04,-,9.004278
1.35,346.3239,978.90,276.9048,91.04,-,9.004278
1.40,363.1724,978.30,287.6667,91.04,-,9.004278
1.45,374.4078,977.90,287.7619,91.04,-,9.004278
1.50,399.7039,977.00,298.5714,91.22,-,9.023726
1.55,419.3915,976.30,309.381,91.22,-,9.023726
1.60,436.2747,975.70,309.5714,91.22,-,9.023726
1.65,455.9835,975.00,315.0476,91.22,-,9.023726
1.70,472.8849,974.40,317.8571,91.22,-,9.023726
1.75,492.6151,973.70,318.0476,91.22,-,9.023726
1.80,509.5365,973.10,312.8571,91.22,-,9.023726
1.85,532.1099,972.30,321.0476,91.22,-,9.023726
1.90,551.8745,971.60,329.1905,91.22,-,9.023726
1.95,577.3017,970.70,342.7619,91.22,-,9.023726
2.00,599.9202,969.90,348.2857,91.22,-,9.023726
2.05,622.5556,969.10,356.5238,91.22,-,9.023726
2.10,648.0359,968.20,364.8095,91.22,-,9.023726
2.15,673.5371,967.30,375.7619,91.22,-,9.023726
2.20,690.5474,966.70,381.2857,91.22,-,9.023726
2.25,710.4048,966.00,389.5238,91.22,-,9.023726
2.30,730.2737,965.30,395.0952,91.22,-,9.023726
2.35,755.8353,964.40,406.0476,91.22,-,9.023726
2.40,775.731,963.70,408.9524,91.22,-,9.023726
2.45,801.3286,962.80,417.2857,91.22,-,9.023726
2.50,826.9439,961.90,430.9524,91.22,-,9.023726
2.55,849.7316,961.10,428.5714,91.04,-,9.023726
2.60,872.533,960.30,431.5238,91.04,-,9.023726
2.65,895.3498,959.50,437.1429,91.04,-,9.023726
2.70,918.1819,958.70,440.1429,91.04,-,9.023726
2.75,943.8877,957.80,448.5238,91.04,-,9.023726
2.80,969.6112,956.90,454.1905,91.04,-,9.023726
2.85,998.2171,955.90,465.3333,91.04,-,9.023726
2.90,1023.984,955.00,468.381,91.04,-,9.023726
2.95,1052.636,954.00,476.8571,91.04,-,9.023726
3.00,1075.574,953.20,474.4762,91.04,-,9.023726
3.05,1095.659,952.50,472.0952,91.04,-,9.023726
3.10,1112.883,951.90,466.9048,91.04,-,9.023726
3.15,1135.865,951.10,464.5238,91.04,-,9.023726
3.20,1161.735,950.20,464.8571,91.04,-,9.023726
3.25,1187.627,949.30,473.3333,91.04,-,9.023726
3.30,1210.658,948.50,476.381,91.04,-,9.023726
3.35,1236.587,947.60,482.1905,91.04,-,9.023726
3.40,1259.651,946.80,479.8095,91.04,-,9.023726
3.45,1274.075,946.30,474.5714,91.04,-,9.023726
3.50,1297.164,945.50,472.1905,91.22,-,9.004278
3.55,1320.27,944.70,469.8095,91.22,-,9.004278
3.60,1343.392,943.90,470.0952,91.22,-,9.004278
3.65,1375.211,942.80,478.6667,91.22,-,9.004278
3.70,1398.37,942.00,479,91.22,-,9.004278
3.75,1424.445,941.10,482.0476,91.22,-,9.004278
3.80,1447.638,940.30,479.6667,91.22,-,9.004278
3.85,1470.847,939.50,477.2857,91.22,-,9.004278
3.90,1496.977,938.60,474.9524,91.22,-,9.004278
3.95,1520.22,937.80,472.5714,91.22,-,9.004278
4.00,1543.48,937.00,467.4286,91.22,-,9.004278
4.05,1569.667,936.10,470.5238,91.22,-,9.004278
4.10,1592.96,935.30,473.5714,91.22,-,9.004278
4.15,1619.184,934.40,482.1429,91.22,-,9.004278
4.20,1639.595,933.70,479.6667,91.22,-,9.004278
4.25,1662.937,932.90,477.2857,91.22,-,9.004278
4.30,1683.375,932.20,472.0952,91.22,-,9.004278
4.35,1712.594,931.20,477.9524,91.22,-,9.004278
4.40,1735.986,930.40,475.5238,91.22,-,9.004278
4.45,1765.251,929.40,481.4286,91.22,-,9.004278
4.50,1791.611,928.50,492.8095,91.22,-,9.004278
4.55,1817.992,927.60,495.9524,91.04,-,9.023726
4.60,1841.458,926.80,496.2857,91.04,-,9.023726
4.65,1864.941,926.00,496.6667,91.04,-,9.023726
4.70,1888.44,925.20,488.7619,91.04,-,9.023726
4.75,1911.955,924.40,489.0952,91.04,-,9.023726
4.80,1929.604,923.80,481.0952,91.04,-,9.023726
4.85,1953.148,923.00,481.4286,91.04,-,9.023726
4.90,1973.764,922.30,478.9524,91.04,-,9.023726
4.95,1997.339,921.50,476.5238,91.04,-,9.023726
5.00,2017.982,920.80,474.0476,91.04,-,9.023726
5.05,2044.54,919.90,477.1905,91.04,-,9.023726
5.10,2065.211,919.20,471.9048,91.04,-,9.023726
5.15,2088.851,918.40,472.2381,91.04,-,9.023726
5.20,2109.55,917.70,467,91.04,-,9.023726
5.25,2136.182,916.80,472.9524,91.04,-,9.023726
5.30,2156.911,916.10,470.4762,91.04,-,9.023726
5.35,2180.615,915.30,473.5714,91.04,-,9.023726
5.40,2201.371,914.60,465.5238,91.04,-,9.023726
5.45,2213.236,914.20,454.5238,91.04,-,9.023726
5.50,2239.951,913.30,452.0952,91.22,-,9.043174
5.55,2263.714,912.50,449.619,91.22,-,9.043174
5.60,2284.522,911.80,444.2857,91.22,-,9.043174
5.65,2305.342,911.10,441.7619,91.22,-,9.043174
5.70,2323.198,910.50,436.381,91.22,-,9.043174
5.75,2347.02,909.70,436.6667,91.22,-,9.043174
5.80,2364.899,909.10,431.3333,91.22,-,9.043174
5.85,2388.752,908.30,437.2381,91.22,-,9.043174
5.90,2406.652,907.70,431.8571,91.22,-,9.043174
5.95,2427.548,907.00,432.1429,91.22,-,9.043174
6.00,2448.458,906.30,429.5714,91.22,-,9.043174
6.05,2472.37,905.50,432.6667,91.22,-,9.043174
6.10,2493.307,904.80,427.3333,91.22,-,9.043174
6.15,2514.258,904.10,427.619,91.22,-,9.043174
6.20,2535.22,903.40,425.0476,91.22,-,9.043174
6.25,2556.198,902.70,425.3333,91.22,-,9.043174
6.30,2574.189,902.10,417.0952,91.22,-,9.043174
6.35,2595.189,901.40,417.3333,91.22,-,9.043174
6.40,2613.201,900.80,411.9048,91.22,-,9.043174
6.45,2634.228,900.10,412.1905,91.22,-,9.043174
6.50,2655.265,899.40,420.9524,91.22,-,9.043174
6.55,2676.318,898.70,415.5714,91.04,-,9.004278
6.60,2694.374,898.10,410.1429,91.04,-,9.004278
6.65,2715.45,897.40,410.4286,91.04,-,9.004278
6.70,2733.527,896.80,407.8571,91.04,-,9.004278
6.75,2751.613,896.20,408.0952,91.04,-,9.004278
6.80,2769.71,895.60,402.6667,91.04,-,9.004278
6.85,2790.833,894.90,405.7143,91.04,-,9.004278
6.90,2808.952,894.30,400.2381,91.04,-,9.004278
6.95,2827.078,893.70,400.4762,91.04,-,9.004278
7.00,2845.217,893.10,397.8571,91.04,-,9.004278
7.05,2866.388,892.40,398.0952,91.04,-,9.004278
7.10,2884.547,891.80,392.619,91.04,-,9.004278
7.15,2905.745,891.10,392.8571,91.04,-,9.004278
7.20,2926.955,890.40,393.0952,91.04,-,9.004278
7.25,2945.147,889.80,390.4762,91.04,-,9.004278
7.30,2966.384,889.10,390.7143,91.04,-,9.004278
7.35,2984.596,888.50,390.9048,91.04,-,9.004278
7.40,3002.818,887.90,388.2381,91.04,-,9.004278
7.45,3014.973,887.50,382.6667,91.04,-,9.004278
7.50,3033.212,886.90,380,91.22,-,9.023726
7.55,3051.463,886.30,377.3333,91.22,-,9.023726
7.60,3066.679,885.80,371.7619,91.22,-,9.023726
7.65,3081.902,885.30,369.0476,91.22,-,9.023726
7.70,3097.131,884.80,363.4762,91.22,-,9.023726
7.75,3112.368,884.30,360.7619,91.22,-,9.023726
7.80,3127.611,883.80,358.0476,91.22,-,9.023726
7.85,3145.912,883.20,358.2381,91.22,-,9.023726
7.90,3161.171,882.70,352.6667,91.22,-,9.023726
7.95,3179.492,882.10,352.8571,91.22,-,9.023726
8.00,3194.767,881.60,350.0952,91.22,-,9.023726
8.05,3216.161,880.90,353.1905,91.22,-,9.023726
8.10,3234.512,880.30,350.5238,91.22,-,9.023726
8.15,3252.872,879.70,350.7143,91.22,-,9.023726
8.20,3265.119,879.30,342.1905,91.22,-,9.023726
8.25,3280.433,878.80,336.5714,91.22,-,9.023726
8.30,3295.753,878.30,333.8095,91.22,-,9.023726
8.35,3314.147,877.70,331.0952,91.22,-,9.023726
8.40,3329.483,877.20,328.381,91.22,-,9.023726
8.45,3347.897,876.60,328.5714,91.22,-,9.023726
8.50,3363.25,876.10,331.619,91.22,-,9.023726
8.55,3381.68,875.50,331.8095,91.22,-,9.004278
8.60,3397.048,875.00,329.0476,91.22,-,9.004278
8.65,3412.423,874.50,329.1905,91.22,-,9.004278
8.70,3427.804,874.00,329.381,91.22,-,9.004278
8.75,3443.193,873.50,329.5238,91.22,-,9.004278
8.80,3455.51,873.10,326.7143,91.22,-,9.004278
8.85,3473.993,872.50,329.8095,91.22,-,9.004278
8.90,3489.403,872.00,327.0476,91.22,-,9.004278
8.95,3504.821,871.50,327.1905,91.22,-,9.004278
9.00,3517.16,871.10,321.5238,91.22,-,9.004278
9.05,3535.677,870.50,324.619,91.22,-,9.004278
9.10,3551.116,870.00,318.9524,91.22,-,9.004278
9.15,3566.562,869.50,316.1905,91.22,-,9.004278
9.20,3578.925,869.10,310.4762,91.22,-,9.004278
9.25,3594.384,868.60,313.5238,91.22,-,9.004278
9.30,3609.851,868.10,313.6667,91.22,-,9.004278
9.35,3625.324,867.60,313.8095,91.22,-,9.004278
9.40,3637.707,867.20,308.0952,91.22,-,9.004278
9.45,3643.901,867.00,299.381,91.22,-,9.004278
9.50,3662.489,866.40,299.5714,91.22,-,9.023726
9.55,3677.987,865.90,299.7143,91.22,-,9.023726
9.60,3693.492,865.40,296.9048,91.22,-,9.023726
9.65,3709.005,864.90,297.0476,91.22,-,9.023726
9.70,3721.421,864.50,294.2381,91.22,-,9.023726
9.75,3736.947,864.00,294.381,91.22,-,9.023726
9.80,3749.374,863.60,291.5714,91.22,-,9.023726
9.85,3761.803,863.20,291.7143,91.22,-,9.023726
9.90,3777.348,862.70,288.9048,91.22,-,9.023726
9.95,3789.79,862.30,286.0952,91.22,-,9.023726
10.00,3802.234,861.90,283.2857,91.22,-,9.023726
10.05,3817.798,861.40,286.3333,91.22,-,9.023726
10.10,3827.141,861.10,277.619,91.22,-,9.023726
10.15,3842.716,860.60,277.7619,91.22,-,9.023726
10.20,3855.181,860.20,274.9048,91.22,-,9.023726
10.25,3870.769,859.70,278,91.22,-,9.023726
10.30,3883.246,859.30,275.1905,91.22,-,9.023726
10.35,3895.726,858.90,272.381,91.22,-,9.023726
10.40,3908.212,858.50,269.5714,91.22,-,9.023726
10.45,3926.949,857.90,275.619,91.22,-,9.023726
10.50,3936.323,857.60,278.619,91.22,-,9.023726
10.55,3951.95,857.10,275.8095,91.22,-,9.023726
10.60,3964.455,856.70,272.9524,91.22,-,9.023726
10.65,3976.968,856.30,270.0952,91.22,-,9.023726
10.70,3986.354,856.00,264.2857,91.22,-,9.023726
10.75,3998.875,855.60,264.381,91.22,-,9.023726
10.80,4011.398,855.20,261.4762,91.22,-,9.023726
10.85,4023.928,854.80,261.5714,91.22,-,9.023726
10.90,4036.461,854.40,261.6667,91.22,-,9.023726
10.95,4049,854.00,258.8095,91.22,-,9.023726
11.00,4058.407,853.70,255.9048,91.22,-,9.023726
11.05,4074.092,853.20,259,91.22,-,9.023726
11.10,4086.646,852.80,256.1429,91.22,-,9.023726
11.15,4099.203,852.40,259.1905,91.22,-,9.023726
11.20,4108.625,852.10,253.2857,91.22,-,9.023726
11.25,4121.191,851.70,253.381,91.22,-,9.023726
11.30,4133.762,851.30,250.4762,91.22,-,9.023726
11.35,4146.337,850.90,250.5238,91.22,-,9.023726
11.40,4155.773,850.60,247.619,91.22,-,9.023726
11.45,4162.063,850.40,241.7143,91.22,-,9.023726
11.50,4174.651,850.00,235.8571,91.22,-,9.023726
11.55,4184.093,849.70,235.9524,91.22,-,9.023726
11.60,4193.539,849.40,230.0476,91.22,-,9.023726
11.65,4206.138,849.00,230.1429,91.22,-,9.023726
11.70,4215.59,848.70,227.2381,91.22,-,9.023726
11.75,4228.198,848.30,230.2857,91.22,-,9.023726
11.80,4237.656,848.00,227.381,91.22,-,9.023726
11.85,4250.272,847.60,227.4762,91.22,-,9.023726
11.90,4259.736,847.30,224.5238,91.22,-,9.023726
11.95,4272.359,846.90,224.5714,91.22,-,9.023726
12.00,4281.832,846.60,221.619,91.22,-,9.023726
12.05,4291.305,846.30,221.6667,91.22,-,9.023726
12.10,4303.939,845.90,218.7619,91.22,-,9.023726
12.15,4313.421,845.60,215.8571,91.22,-,9.023726
12.20,4322.903,845.30,212.9524,91.22,-,9.023726
12.25,4332.389,845.00,213.0476,91.22,-,9.023726
12.30,4338.714,844.80,207.1429,91.22,-,9.023726
12.35,4348.204,844.50,204.2381,91.22,-,9.023726
12.40,4357.696,844.20,201.3333,91.22,-,9.023726
12.45,4367.192,843.90,201.381,91.22,-,9.023726
12.50,4376.691,843.60,204.4286,91.22,-,9.023726
12.55,4386.192,843.30,201.4762,91.04,-,9.023726
12.60,4395.695,843.00,201.5238,91.04,-,9.023726
12.65,4405.202,842.70,201.5714,91.04,-,9.023726
12.70,4414.71,842.40,198.619,91.04,-,9.023726
12.75,4421.052,842.20,195.6667,91.04,-,9.023726
12.80,4430.565,841.90,192.7143,91.04,-,9.023726
12.85,4440.083,841.60,192.7619,91.04,-,9.023726
12.90,4449.603,841.30,189.8095,91.04,-,9.023726
12.95,4459.124,841.00,189.8571,91.04,-,9.023726
13.00,4465.474,840.80,183.9048,91.04,-,9.023726
13.05,4471.825,840.60,180.9524,91.04,-,9.023726
13.10,4478.176,840.40,178,91.04,-,9.023726
13.15,4487.708,840.10,175.0476,91.04,-,9.023726
13.20,4494.061,839.90,172.0476,91.04,-,9.023726
13.25,4500.418,839.70,169.0476,91.04,-,9.023726
13.30,4506.776,839.50,166.0476,91.04,-,9.023726
13.35,4513.135,839.30,166.0476,91.04,-,9.023726
13.40,4519.495,839.10,163.0476,91.04,-,9.023726
13.45,4522.675,839.00,157.0476,91.04,-,9.023726
13.50,4529.037,838.80,154.0476,91.22,-,9.023726
13.55,4535.4,838.60,151.0476,91.22,-,9.023726
13.60,4541.763,838.40,148.0476,91.22,-,9.023726
13.65,4548.129,838.20,145.0476,91.22,-,9.023726
13.70,4554.496,838.00,142.0476,91.22,-,9.023726
13.75,4564.048,837.70,142.0952,91.22,-,9.023726
13.80,4570.418,837.50,142.0952,91.22,-,9.023726
13.85,4579.975,837.20,142.1429,91.22,-,9.023726
13.90,4586.349,837.00,139.1429,91.22,-,9.023726
13.95,4592.723,836.80,136.1429,91.22,-,9.023726
14.00,4602.286,836.50,136.1905,91.22,-,9.023726
14.05,4608.664,836.30,136.2381,91.22,-,9.023726
14.10,4615.042,836.10,136.2857,91.22,-,9.023726
14.15,4624.612,835.80,139.3333,91.22,-,9.023726
14.20,4630.994,835.60,136.3333,91.22,-,9.023726
14.25,4637.375,835.40,136.381,91.22,-,9.023726
14.30,4643.76,835.20,136.4286,91.22,-,9.023726
14.35,4653.338,834.90,139.5238,91.22,-,9.023726
14.40,4656.532,834.80,136.5238,91.22,-,9.023726
14.45,4662.92,834.60,136.5714,91.22,-,9.023726
14.50,4669.308,834.40,139.619,91.22,-,9.023726
14.55,4672.504,834.30,136.619,91.04,-,9.023726
14.60,4675.698,834.20,133.619,91.04,-,9.023726
14.65,4678.895,834.10,130.619,91.04,-,9.023726
14.70,4685.286,833.90,130.6667,91.04,-,9.023726
14.75,4688.483,833.80,127.6667,91.04,-,9.023726
14.80,4691.679,833.70,121.619,91.04,-,9.023726
14.85,4698.074,833.50,121.6667,91.04,-,9.023726
14.90,4704.471,833.30,118.6667,91.04,-,9.023726
14.95,4710.868,833.10,118.7143,91.04,-,9.023726
15.00,4714.066,833.00,115.7143,91.04,-,9.023726
15.05,4720.465,832.80,112.7143,91.04,-,9.023726
15.10,4723.665,832.70,109.6667,91.04,-,9.023726
15.15,4730.066,832.50,109.6667,91.04,-,9.023726
15.20,4736.468,832.30,106.6667,91.04,-,9.023726
15.25,4742.872,832.10,106.6667,91.04,-,9.023726
15.30,4746.073,832.00,103.619,91.04,-,9.023726
15.35,4749.275,831.90,100.5714,91.04,-,9.023726
15.40,4752.479,831.80,94.47619,91.04,-,9.023726
15.45,4755.681,831.70,94.47619,91.04,-,9.023726
15.50,4758.885,831.60,91.42857,91.22,-,9.043174
15.55,4762.088,831.50,88.38095,91.22,-,9.043174
15.60,4765.292,831.40,88.38095,91.22,-,9.043174
15.65,4771.701,831.20,91.42857,91.22,-,9.043174
15.70,4774.907,831.10,91.42857,91.22,-,9.043174
15.75,4778.111,831.00,88.38095,91.22,-,9.043174
15.80,4781.316,830.90,88.38095,91.22,-,9.043174
15.85,4787.729,830.70,91.42857,91.22,-,9.043174
15.90,4790.936,830.60,88.38095,91.22,-,9.043174
15.95,4794.142,830.50,85.33334,91.22,-,9.043174
16.00,4797.349,830.40,82.28571,91.22,-,9.043174
16.05,4800.557,830.30,82.28571,91.22,-,9.043174
16.10,4803.764,830.20,79.2381,91.22,-,9.043174
16.15,4806.973,830.10,79.2381,91.22,-,9.043174
16.20,4810.181,830.00,76.19048,91.22,-,9.043174
16.25,4813.389,829.90,73.14286,91.22,-,9.043174
16.30,4816.599,829.80,70.09524,91.22,-,9.043174
16.35,4816.599,829.80,67.04762,91.22,-,9.043174
16.40,4819.807,829.70,67.04762,91.22,-,9.043174
16.45,4823.018,829.60,67.04762,91.22,-,9.043174
16.50,4826.227,829.50,67.04762,91.22,-,9.043174
16.55,4826.227,829.50,64,95.18,-,9.023726
16.60,4829.437,829.40,64,95.18,-,9.023726
16.65,4832.648,829.30,64,95.18,-,9.023726
16.70,4835.858,829.20,60.95238,95.18,-,9.023726
16.75,4835.858,829.20,57.90476,95.18,-,9.023726
16.80,4839.071,829.10,57.90476,95.18,-,9.023726
16.85,4842.281,829.00,57.90476,95.18,-,9.023726
16.90,4845.492,828.90,54.85714,95.18,-,9.023726
16.95,4845.492,828.90,51.80952,95.18,-,9.023726
17.00,4848.706,828.80,51.80952,95.18,-,9.023726
17.05,4848.706,828.80,48.76191,95.18,-,9.023726
17.10,4851.917,828.70,48.76191,95.18,-,9.023726
17.15,4851.917,828.70,45.71429,95.18,-,9.023726
17.20,4855.131,828.60,45.71429,95.18,-,9.023726
17.25,4858.343,828.50,45.71429,95.18,-,9.023726
17.30,4858.343,828.50,42.66667,95.18,-,9.023726
17.35,4858.343,828.50,39.61905,95.18,-,9.023726
17.40,4861.556,828.40,42.66667,95.18,-,9.023726
17.45,4864.771,828.30,42.66667,95.18,-,9.023726
17.50,4864.771,828.30,39.61905,94.82,-,9.043174
17.55,4867.984,828.20,39.61905,94.82,-,9.043174
17.60,4867.984,828.20,39.61905,94.82,-,9.043174
17.65,4871.2,828.10,39.61905,94.82,-,9.043174
17.70,4871.2,828.10,36.57143,94.82,-,9.043174
17.75,4874.414,828.00,36.57143,94.82,-,9.043174
17.80,4874.414,828.00,36.57143,94.82,-,9.043174
17.85,4877.627,827.90,36.57143,94.82,-,9.043174
17.90,4877.627,827.90,33.52381,94.82,-,9.043174
17.95,4880.844,827.80,33.52381,94.82,-,9.043174
18.00,4880.844,827.80,33.52381,94.82,-,9.043174
18.05,4884.059,827.70,33.52381,94.82,-,9.043174
18.10,4887.276,827.60,36.57143,94.82,-,9.043174
18.15,4884.059,827.70,30.47619,94.82,-,9.043174
18.20,4884.059,827.70,30.47619,94.82,-,9.043174
18.25,4887.276,827.60,30.47619,94.82,-,9.043174
18.30,4884.059,827.70,24.38095,94.82,-,9.043174
18.35,4887.276,827.60,27.42857,94.82,-,9.043174
18.40,4884.059,827.70,24.38095,94.82,-,9.043174
18.45,4884.059,827.70,21.33333,94.82,-,9.043174
18.50,4880.844,827.80,15.2381,94.82,-,9.043174
18.55,4877.627,827.90,12.19048,94.28,-,9.043174
18.60,4874.414,828.00,6.095238,94.28,-,9.043174
18.65,4874.414,828.00,6.095238,94.28,-,9.043174
18.70,2062.258,919.30,-2675.19,94.28,Drogue,9.043174
18.75,2118.425,917.40,-2621.714,94.28,-,9.043174
18.80,4900.141,827.20,24.47619,94.28,-,9.043174
18.85,4887.276,827.60,12.2381,94.28,-,9.043174
18.90,4877.627,827.90,0,94.28,-,9.043174
18.95,4871.2,828.10,-6.142857,94.28,-,9.043174
19.00,4871.2,828.10,-9.190476,94.28,-,9.043174
19.05,4871.2,828.10,-9.190476,94.28,-,9.043174
19.10,4867.984,828.20,-15.28571,94.28,-,9.043174
19.15,4861.556,828.40,-24.47619,94.28,-,9.043174
19.20,4861.556,828.40,-21.42857,94.28,-,9.043174
19.25,4858.343,828.50,-24.47619,94.28,-,9.043174
19.30,4851.917,828.70,-33.66667,94.28,-,9.043174
19.35,4848.706,828.80,-33.66667,94.28,-,9.043174
19.40,4848.706,828.80,-36.71429,94.28,-,9.043174
19.45,4845.492,828.90,-36.71429,94.28,-,9.043174
19.50,4842.281,829.00,-39.76191,94.1,-,9.043174
19.55,4842.281,829.00,-36.71429,94.1,-,9.043174
19.60,4842.281,829.00,-33.66667,94.1,-,9.043174
19.65,4839.071,829.10,-33.66667,94.1,-,9.043174
19.70,4835.858,829.20,-36.71429,94.1,-,9.043174
19.75,4835.858,829.20,2641.524,94.1,-,9.043174
19.80,4835.858,829.20,2588.048,94.1,-,9.043174
19.85,4835.858,829.20,-61.19048,94.1,-,9.043174
19.90,4832.648,829.30,-52,94.1,-,9.043174
19.95,4832.648,829.30,-42.80952,94.1,-,9.043174
20.00,4832.648,829.30,-36.66667,94.1,-,9.043174
20.05,4829.437,829.40,-39.71429,94.1,-,9.043174
20.10,4826.227,829.50,-42.76191,94.1,-,9.043174
20.15,4816.599,829.80,-48.90476,94.1,-,9.043174
20.20,4810.181,830.00,-48.85714,94.1,-,9.043174
20.25,4806.973,830.10,-51.90476,94.1,-,9.043174
20.30,4803.764,830.20,-51.90476,94.1,-,9.043174
20.35,4797.349,830.40,-51.85714,94.1,-,9.043174
20.40,4794.142,830.50,-51.85714,94.1,-,9.043174
20.45,4794.142,830.50,-51.85714,94.1,-,9.043174
20.50,4790.936,830.60,-51.85714,94.1,-,9.043174
20.55,4790.936,830.60,-48.80952,94.1,-,9.043174
20.60,4787.729,830.70,-51.85714,94.1,-,9.043174
20.65,4787.729,830.70,-51.85714,94.1,-,9.043174
20.70,4784.523,830.80,-51.85714,94.1,-,9.043174
20.75,4781.316,830.90,-51.85714,94.1,-,9.043174
20.80,4778.111,831.00,-54.90476,94.1,-,9.043174
20.85,4774.907,831.10,-57.95238,94.1,-,9.043174
20.90,4771.701,831.20,-61,94.1,-,9.043174
20.95,4768.497,831.30,-61,94.1,-,9.043174
21.00,4768.497,831.30,-61,94.1,-,9.043174
21.05,4768.497,831.30,-61,94.1,-,9.043174
21.10,4771.701,831.20,-54.90476,94.1,-,9.043174
